__SOURCE_PAGE,__SOURCE_LINE,__RECORD_FORMAT,DT_CREATED,DT_VAR,DT_ROW,DT_STP,SER_NO,NUM,ED_CENA,VALUTA,KOLICH,KOLICH2
5496,1,1,38387853,1307737731,1307737916,35144420,1172012/090925,1,34.794,L,2.0,0.0
5496,2,1,38387853,1307737731,0,44420887,061125/1,1,3.4794,L,20.0,0.0
5496,3,1,38387853,1307737731,1307737916,44420887,1172012/090925,1,34.794,L,2.0,0.0
5496,4,1,42586075,1307737731,1307737916,41749393,1172012/090925,1,34.794,L,1.9,0.0
5496,5,1,42586075,1307737731,0,44510007,061125/1,1,1.7396999999999998,L,38.0,0.0
5496,6,1,42586075,1307737731,1307737916,44510007,1172012/090925,1,34.794,L,1.9,0.0
5496,7,1,47025256,1308344782,1308344841,38264367,10143626/120925,1,25.56,L,5.11,0.0
5496,8,1,38927001,1308348189,1308348266,39452779,6722/180925,1,64.2,L,0.8,0.0
5496,9,1,45773546,1308344164,1308344271,42798440,6722/180925,1,64.2,L,0.65,0.0
5496,10,1,47025256,1308344782,0,43690652,271025/body,1,3.7313868613138683,L,35.0,0.0
5496,11,1,47025256,1308344782,1308344841,43690652,10143626/120925,1,25.56,L,5.109489051094891,0.0
5496,12,1,45773546,1308344164,0,37167079,271025/bot,1,1.1888888888888889,L,35.0,0.0
5496,13,1,45773546,1308344164,1308344271,37167079,6722/180925,1,64.2,L,0.6481481481481481,0.0
5496,14,1,38927001,1308348189,0,49328018,271025/cap,1,1.4758620689655173,L,35.0,0.0
5496,15,1,38927001,1308348189,1308348266,49328018,6722/180925,1,64.2,L,0.8,0.0
5496,16,1,47656930,1308351747,1308351779,37660698,271025/cap,1,1.47586206896552,L,35.0,0.0
5496,17,1,49070797,1308348189,1308348266,48264767,6722/180925,1,32.82,M,0.23,0.0
5496,18,1,43987986,1307737731,1307737916,44040911,1172012/090925,1,17.79,M,2.11,0.0
5496,19,1,47656930,1308351747,1308351791,37660698,271025/bot,1,1.18888888888889,L,35.0,0.0
5496,20,1,47656930,1308351747,1308351801,37660698,271025/body,1,3.73138686131387,L,35.0,0.0
5496,21,1,47656930,1308351747,0,41414878,271025/ppb,1,6.396137819168279,L,35.0,0.0
5496,22,1,43987986,1307737731,0,35505348,270126/1,1,0.9363157894736841,M,40.0,0.0
5496,23,1,43987986,1307737731,1307737916,35505348,1172012/090925,1,17.79,M,2.1052631578947367,0.0
5496,24,1,39991739,1312037749,1312037816,49021392,10144231/011025/1,1,20.190842,M,8.0,0.0
5496,25,1,39991739,1312037749,0,40961008,090226/1,1,39.48985450886,L,8.0,0.0
5496,26,1,39991739,1312037749,1312037816,40961008,10144231/011025/1,1,20.190842,M,8.0,0.0
5496,27,1,47233553,1312040009,1312038593,36714885,090226/1,1,39.48985450886,L,8.0,0.0
5496,28,1,47233553,1312040009,1312038665,36714885,10143532/110925/33.7,1,11.544970677410612,M,0.5,0.0
5496,29,1,47233553,1312040009,1312038711,36714885,10143532/110925/25,1,5.4,M,8.0,0.0
5496,30,1,47233553,1312040009,0,44836816,090226/2,1,51.45129650886,L,8.0,0.0
5496,31,1,47233553,1312040009,1312038593,44836816,090226/1,1,39.48985450886,L,8.0,0.0
5496,32,1,47233553,1312040009,1312038665,44836816,10143532/110925/33.7,1,11.544970677410612,M,0.496,0.0
5496,33,1,47233553,1312040009,1312038711,44836816,10143532/110925/25,1,5.4,M,8.0,0.0
5496,34,1,34055391,1312062665,1312062731,46236987,10143532/110925/k1`,1,2.996159,M,4.0,0.0
5496,35,1,34055391,1312062665,1312062768,46236987,10143532/110925/33.7,1,11.544970677410612,M,0.28,0.0
5496,36,1,34055391,1312062665,1312062784,46236987,10143532/110925/25,1,5.4,M,4.0,0.0
5496,38,1,45748066,1308344164,1308344271,39234588,6722/180925,1,32.82,M,0.19,0.0
5496,39,1,47854542,1308344782,1308344841,47049208,10144596/101025/1,1,13.068572,M,1.46,0.0
5496,40,1,38624603,1310539391,1310539433,42348863,181125/2,1,0.51,M,0.22,0.0
5496,41,1,38624603,1310539391,1310634354,42348863,5166101/081025/2,1,18.5,M,2.53,0.0
5496,42,1,38624603,1310539391,1310634540,42348863,5166101/081025/1,1,14.5,M,1.1,0.0
5836,1,1,34055391,1312062665,0,49540274,090226/3,1,18.002059656969998,L,4.0,0.0
5836,2,1,34055391,1312062665,1312062731,49540274,10143532/110925/k1`,1,2.996159,M,4.0,0.0
5836,3,1,34055391,1312062665,1312062768,49540274,10143532/110925/33.7,1,11.544970677410612,M,0.28,0.0
5836,4,1,34055391,1312062665,1312062784,49540274,10143532/110925/25,1,5.4,M,4.0,0.0
5836,5,1,35768859,1312049510,1312049565,48482632,031225/1,1,0.51129,M,0.44,0.0
5836,6,1,35768859,1312049510,1312049612,48482632,246/141025,1,160.38,L,4.0,0.0
5836,7,1,35768859,1312049510,0,43763387,090226/4,1,169.689965745717,L,4.0,0.0
5836,8,1,35768859,1312049510,1312049565,43763387,031225/1,1,0.51129,M,0.44,0.0
5836,9,1,47656930,1308351747,1308351779,41414878,271025/cap,1,1.47586206896552,L,35.0,0.0
5836,10,1,47656930,1308351747,1308351791,41414878,271025/bot,1,1.18888888888889,L,35.0,0.0
5836,11,1,47656930,1308351747,1308351801,41414878,271025/body,1,3.73138686131387,L,35.0,0.0
5836,12,1,47048524,1308356621,1308356653,40407933,271025/ppb,1,6.39613781916828,L,10.0,0.0
5836,13,1,47048524,1308356621,1308356672,40407933,0005245092,1,17.02,L,10.0,0.0
5836,14,1,47048524,1308356621,1308356693,40407933,0005450661,1,76.94,M,10.0,0.0
5836,15,1,47048524,1308356621,1308356769,40407933,5166101/081025/1,1,28.36,L,1.0,0.0
5836,16,1,47048524,1308356621,1308356802,40407933,5166101/081025/2,1,36.18,L,2.3,0.0
5836,17,1,47048524,1308356621,0,48865886,271025/fpb,1,185.0550980191683,L,10.0,0.0
5836,24,1,47048524,1308356621,1308356653,48865886,271025/ppb,1,6.39613781916828,L,10.0,0.0
5836,25,1,47048524,1308356621,1308356672,48865886,0005245092,1,17.02,L,10.0,0.0
5836,26,1,47048524,1308356621,1308356693,48865886,0005450661,1,76.94,M,10.0,0.0
5836,27,1,47048524,1308356621,1308356769,48865886,5166101/081025/1,1,28.36,L,1.0,0.0
5836,28,1,47048524,1308356621,1308356802,48865886,5166101/081025/2,1,36.18,L,2.3,0.0
5836,29,1,49132890,1300860839,1300861131,37874140,28675/25082025,1,1814.4,L,1.0,0.0
5836,30,1,49132890,1300860839,1305654176,37874140,1459015834/170925/4,1,2.45,L,1.0,0.0
5836,31,1,49132890,1300860839,1305654315,37874140,1459015834/170925/6,1,14.65,L,4.0,0.0
5836,32,1,49132890,1300860839,1305654609,37874140,1459015834/170925/1,1,23.47,L,1.0,0.0
5836,33,1,49132890,1300860839,1305654639,37874140,1459015834/170925/3,1,3.77,L,1.0,0.0
5836,34,1,49132890,1300860839,1306461044,37874140,250825/1,1,180.0,L,5.0,0.0
5836,35,1,49132890,1300860839,1306633119,37874140,340044944/011025,1,0.73,L,2.0,0.0
5836,36,1,49132890,1300860839,1306644712,37874140,10144259/021025,1,960.0,L,2.0,0.0
5836,37,1,49132890,1300860839,1306930016,37874140,080825/1,1,52.84,L,1.0,0.0
5836,38,1,49132890,1300860839,1306930016,37874140,1459017125/061025,2,52.84,L,1.0,0.0
5836,39,1,49132890,1300860839,1311460582,37874140,134696/271125,1,31.39,L,2.0,0.0
5836,40,1,49132890,1300860839,1311938701,37874140,07082025,1,4.548,L,6.0,0.0
5836,41,1,49132890,1300860839,1311938717,37874140,061125/1,1,1.83,L,18.0,0.0
5836,43,1,38624603,1310539391,0,48005959,230126/10,1,46.807831553333344,L,3.3,0.0
5836,44,1,49132890,1300860839,1312232425,37874140,122170/14082025,1,6.48,L,250.0,0.0
5836,45,1,49132890,1300860839,1312232425,37874140,122846/180925,2,6.48,L,100.0,0.0
5836,46,1,49132890,1300860839,1313632769,37874140,4046/121225,1,105.0,L,4.0,0.0
5836,47,1,49132890,1300860839,1316158847,37874140,42502651/200825,1,1314.96,M,1.0,0.0
5836,48,1,49132890,1300860839,1316158854,37874140,42502593/140825,1,1519.55,M,1.0,0.0
5798,1,1,38624603,1310539391,1310539433,48005959,181125/2,1,0.51,M,0.21999999999999997,0.0
5798,2,1,38624603,1310539391,1310634354,48005959,5166101/081025/2,1,18.5,M,2.53,0.0
5798,3,1,38624603,1310539391,1310634540,48005959,5166101/081025/1,1,14.5,M,1.1,0.0
5798,4,1,49070797,1308348189,0,33627471,230126/11,1,1.4756400137931034,L,10.0,0.0
5798,5,1,49070797,1308348189,1308348266,33627471,6722/180925,1,32.82,M,0.22988505747126436,0.0
5798,6,1,45748066,1308344164,0,34698093,230126/12,1,1.188710011111111,L,10.0,0.0
5798,7,1,45748066,1308344164,1308344271,34698093,6722/180925,1,32.82,M,0.18518518518518517,0.0
5798,8,1,39297021,1300860839,1300860841,36945574,28082025/10,1,2.26368,L,7.0,0.0
5798,9,1,39297021,1300860839,1300860842,36945574,28082025/11,1,0.0,L,0.07,0.0
5798,10,1,39297021,1300860839,1300860843,36945574,28082025/10,1,3.15594,L,6.0,0.0
5798,11,1,39297021,1300860839,1300860844,36945574,28082025/12,1,3.81654,L,36.0,0.0
5798,12,1,47854542,1308344782,0,50108062,230126/13,1,3.7313730182131386,L,10.0,0.0
5798,13,1,35768859,1312049510,1312049612,43763387,246/141025,1,160.38,L,4.0,0.0
5798,14,1,45794728,1312063269,1312063346,45274291,090226/2,1,51.45129650886,L,8.0,0.0
5798,15,1,39297021,1300860839,1300860845,36945574,28082025/13,1,4.84848,L,56.5,0.0
5798,16,1,39297021,1300860839,1300860846,36945574,28082025/14,1,5.22249,L,1.5,0.0
5798,17,1,39297021,1300860839,1300860847,36945574,132017/28082025,1,11.5,L,2.6,0.0
5798,18,1,39297021,1300860839,1300860861,36945574,28082025/2,1,11.19,L,1.75,0.0
5798,19,1,49669910,1308356621,1308356653,46936188,271025/ppb,1,6.39613781916828,L,15.0,0.0
5798,20,1,49669910,1308356621,1308356672,46936188,0005245092,1,17.02,L,4.0,0.0
5798,21,1,49669910,1308356621,1308356672,46936188,0005268320,2,17.02,L,11.0,0.0
5798,22,1,49669910,1308356621,1308356693,46936188,0005484599,1,69.26,M,15.0,0.0
5798,23,1,49669910,1308356621,1308356769,46936188,5166101/081025/1,1,28.36,L,1.5,0.0
5798,24,1,49669910,1308356621,1308356802,46936188,5166101/081025/2,1,36.18,L,3.45,0.0
5798,25,1,49669910,1308356621,0,34282710,301025/fpb,1,170.0343236191683,L,15.0,0.0
5798,26,1,49669910,1308356621,1308356653,34282710,271025/ppb,1,6.39613781916828,L,15.0,0.0
5798,27,1,49669910,1308356621,1308356672,34282710,0005245092,1,17.02,L,4.0,0.0
5798,28,1,49669910,1308356621,1308356672,34282710,0005268320,2,17.02,L,11.0,0.0
5798,29,1,49669910,1308356621,1308356693,34282710,0005484599,1,69.26,M,15.0,0.0
5798,30,1,49669910,1308356621,1308356769,34282710,5166101/081025/1,1,28.36,L,1.5,0.0
5798,31,1,49669910,1308356621,1308356802,34282710,5166101/081025/2,1,36.18,L,3.45,0.0
5798,32,1,39297021,1300860839,1300860862,36945574,10143532/110925/33.7,1,22.58,L,10.0,0.0
5798,33,1,39297021,1300860839,1300860862,36945574,28082025/3,2,22.58,L,11.0,0.0
5798,34,1,39297021,1300860839,1300860873,36945574,10143532/110925/k2`,1,11.196,L,8.0,0.0
5798,35,1,39297021,1300860839,1300860876,36945574,10143532/110925/t2`,1,21.65,L,2.0,0.0
5798,37,1,36425042,1300860756,1300860781,44872595,07082025,1,3.912,L,11.0,0.0
5798,38,1,36425042,1300860756,1300860783,44872595,300925,1,0.0,L,2.0,0.0
5798,39,1,36425042,1300860756,1307151063,44872595,81066/040925/1,1,100.0,L,9.0,0.0
5798,40,1,36425042,1300860756,1307151093,44872595,24295/141025,1,63.79,L,3.0,0.0
5798,41,1,36425042,1300860756,1307151100,44872595,2025Y06M,1,33.33,L,3.0,0.0
5798,42,1,36425042,1300860756,1307630841,44872595,201025/3,1,0.0,L,3.0,0.0
5798,43,1,36425042,1300860756,1307630870,44872595,201025/2,1,0.0,L,3.0,0.0
5849,1,1,40169806,1312037749,1312037816,40874321,10143532/110925/6`,1,39.49,L,8.0,0.0
5849,2,1,40169806,1312037749,0,41883175,041225/1,1,39.49,L,8.0,0.0
5849,3,1,40169806,1312037749,1312037816,41883175,10143532/110925/6`,1,39.49,L,8.0,0.0
5849,4,1,44730875,1312040009,1312038593,43777570,041225/1,1,39.49,L,8.0,0.0
5849,5,1,44730875,1312040009,1312038665,43777570,28082025/3,1,22.58,L,0.5,0.0
5849,6,1,44730875,1312040009,1312038711,43777570,10143532/110925/25,1,11.1132,L,8.0,0.0
5849,7,1,44730875,1312040009,0,44252665,041225/2,1,52.00316,L,8.0,0.0
5849,8,1,44730875,1312040009,1312038593,44252665,041225/1,1,39.49,L,8.0,0.0
5849,9,1,44730875,1312040009,1312038665,44252665,28082025/3,1,22.58,L,0.496,0.0
5849,10,1,39297021,1300860839,1300860882,36945574,10142820/19082025,1,31.04,L,1.0,0.0
5849,11,1,39297021,1300860839,1300860882,36945574,10143532/110925/6`,2,39.49,L,4.0,0.0
5849,12,1,39297021,1300860839,1300860883,36945574,10143532/110925/4`,1,15.619999999999997,L,6.0,0.0
5849,13,1,39297021,1300860839,1300860885,36945574,10143532/110925/40,1,21.5437,L,22.0,0.0
5849,14,1,39297021,1300860839,1300860886,36945574,10143532/110925/50,1,20.7466,L,2.0,0.0
5849,15,1,47854542,1308344782,1308344841,50108062,10144596/101025/1,1,13.068572,M,1.4598540145985404,0.0
5849,16,1,39314364,1308356621,0,45253756,121225/1,1,170.0343236191683,L,10.0,0.0
5849,21,1,36654702,1311532157,0,45335126,281125/1,1,12023.313954199997,L,1.0,0.0
5849,22,1,36654702,1311532157,1311532225,45335126,0005315211,1,14.53,L,11.0,0.0
5849,23,1,36654702,1311532157,1311532278,45335126,0005358918,1,302.39,L,1.0,0.0
5849,24,1,36654702,1311532157,1311532317,45335126,0005235216,1,59.79,L,1.0,0.0
5849,25,1,36654702,1311532157,1311532317,45335126,0005285068,2,59.79,L,5.0,0.0
5849,26,1,36654702,1311532157,1311532475,45335126,0005272023,1,25.39,L,8.0,0.0
5849,27,1,36654702,1311532157,1311532533,45335126,0005292001,1,39.53,L,4.0,0.0
5849,28,1,36654702,1311532157,1311532822,45335126,0004494882,1,45.18,L,4.0,0.0
5849,29,1,36654702,1311532157,1311532910,45335126,0005326933,1,230.94,L,2.0,0.0
5849,30,1,36654702,1311532157,1311532982,45335126,0005205716,1,6.83,L,10.0,0.0
5849,31,1,36654702,1311532157,1311533088,45335126,271125/1,1,22.39,L,2.0,0.0
5849,32,1,36654702,1311532157,1311533163,45335126,E250569/1,1,3214.41,L,1.0,0.0
5849,33,1,36654702,1311532157,1311533209,45335126,E240801-5,1,5933.21,L,1.0,0.0
5849,34,1,36654702,1311532157,1311533247,45335126,E250569/11,1,381.97,L,1.0,0.0
5849,35,1,36654702,1311532157,1311533272,45335126,E250569/10,1,381.97,L,1.0,0.0
5849,41,1,44730875,1312040009,1312038711,44252665,10143532/110925/25,1,11.1132,L,8.0,0.0
5849,42,1,50173966,1312049510,1312049543,34717919,29416/271125/1,1,4.6,L,8.0,0.0
5849,50,1,36654702,1311532157,1311532225,44481939,0005315211,1,14.53,L,11.0,0.0
5849,51,1,36654702,1311532157,1311532278,44481939,0005358918,1,302.39,L,1.0,0.0
5849,52,1,36654702,1311532157,1311532317,44481939,0005235216,1,59.79,L,1.0,0.0
5849,53,1,36654702,1311532157,1311532317,44481939,0005285068,2,59.79,L,5.0,0.0
5849,54,1,36654702,1311532157,1311532475,44481939,0005272023,1,25.39,L,8.0,0.0
5849,55,1,36654702,1311532157,1311532533,44481939,0005292001,1,39.53,L,4.0,0.0
5849,56,1,36654702,1311532157,1311532822,44481939,0004494882,1,45.18,L,4.0,0.0
5849,57,1,36654702,1311532157,1311532910,44481939,0005326933,1,230.94,L,2.0,0.0
5849,58,1,36654702,1311532157,1311532982,44481939,0005205716,1,6.83,L,10.0,0.0
6160,1,1,36654702,1311532157,1311533088,44481939,271125/1,1,22.39,L,2.0,0.0
6160,2,1,36654702,1311532157,1311533163,44481939,E250569/1,1,3214.41,L,1.0,0.0
6160,3,1,36654702,1311532157,1311533209,44481939,E240801-5,1,5933.21,L,1.0,0.0
6160,4,1,36425042,1300860756,1307630889,44872595,201025/1,1,0.0,L,4.0,0.0
6160,5,1,36425042,1300860756,1307630906,44872595,201025/4,1,0.0,L,2.0,0.0
6160,6,1,36425042,1300860756,1307630925,44872595,090925/6,1,1.0,L,10.0,0.0
6160,7,1,36425042,1300860756,1307630943,44872595,201025/6,1,0.0,L,2.0,0.0
6160,8,1,36425042,1300860756,1307630951,44872595,181225/6,1,0.0,L,2.0,0.0
6160,9,1,36425042,1300860756,1307631886,44872595,PBC875690,1,393.72,L,1.0,0.0
6160,10,1,36425042,1300860756,1307631886,44872595,PBC875691,2,393.72,L,1.0,0.0
6160,11,1,36425042,1300860756,1307631886,44872595,PBC875692,3,393.72,L,1.0,0.0
6160,12,1,36425042,1300860756,1307631886,44872595,PBC875693,4,393.72,L,1.0,0.0
6160,13,1,36425042,1300860756,1307631886,44872595,PBC875695,5,393.72,L,1.0,0.0
6160,14,1,39314364,1308356621,1308356653,45253756,271025/ppb,1,6.39613781916828,L,10.0,0.0
6160,15,1,39314364,1308356621,1308356672,45253756,0005245092,1,17.02,L,10.0,0.0
6160,16,1,39314364,1308356621,1308356693,45253756,0005484599,1,69.26,M,10.0,0.0
6160,17,1,39314364,1308356621,1308356769,45253756,5166101/081025/1,1,28.36,L,1.0,0.0
6160,18,1,39314364,1308356621,1308356802,45253756,5166101/081025/2,1,36.18,L,2.3,0.0
6160,19,1,41682963,1308351747,1308351779,35692777,230126/11,1,1.4756400137931,L,10.0,0.0
6160,20,1,41682963,1308351747,1308351791,35692777,230126/12,1,1.188710011111111,L,10.0,0.0
6160,21,1,41682963,1308351747,1308351801,35692777,230126/13,1,3.7313730182131386,L,10.0,0.0
6160,22,1,41682963,1308351747,0,41101048,230126/20,1,6.39572304311735,L,10.0,0.0
6160,23,1,41682963,1308351747,1308351779,41101048,230126/11,1,1.4756400137931,L,10.0,0.0
6160,24,1,41682963,1308351747,1308351791,41101048,230126/12,1,1.188710011111111,L,10.0,0.0
6160,25,1,41682963,1308351747,1308351801,41101048,230126/13,1,3.7313730182131386,L,10.0,0.0
6160,26,1,36650426,1308356621,1308356653,42476671,230126/20,1,3.27,M,10.0,0.0
6160,27,1,36650426,1308356621,1308356672,42476671,0005245092,1,8.7,M,6.0,0.0
6160,28,1,36650426,1308356621,1308356672,42476671,0005335353,2,8.7,M,4.0,0.0
6160,29,1,36650426,1308356621,1308356693,42476671,0005484599,1,69.26,M,6.0,0.0
6160,30,1,36650426,1308356621,1308356693,42476671,0005550271,2,69.26,M,4.0,0.0
6160,31,1,36650426,1308356621,1310744658,42476671,230126/10,1,23.94,M,3.3,0.0
6160,32,1,36650426,1308356621,0,49022476,301025/fpb,1,176.55316526600004,L,10.0,0.0
6160,33,1,36650426,1308356621,1308356653,49022476,230126/20,1,3.27,M,10.0,0.0
6160,34,1,36650426,1308356621,1308356672,49022476,0005245092,1,8.7,M,6.0,0.0
6160,35,1,36650426,1308356621,1308356672,49022476,0005335353,2,8.7,M,4.0,0.0
6160,36,1,36650426,1308356621,1308356693,49022476,0005484599,1,69.26,M,6.0,0.0
6160,37,1,36650426,1308356621,1308356693,49022476,0005550271,2,69.26,M,4.0,0.0
6160,38,1,36650426,1308356621,1310744658,49022476,230126/10,1,23.94,M,3.3,0.0
6160,39,1,36425042,1300860756,1307631886,44872595,PBC875696,6,393.72,L,1.0,0.0
6160,40,1,36654702,1311532157,1311533247,44481939,E250569/11,1,381.97,L,1.0,0.0
6160,41,1,36654702,1311532157,1311533272,44481939,E250569/10,1,381.97,L,1.0,0.0
6160,42,1,36654702,1311532157,1311533292,44481939,E250569/12,1,19.11,L,2.0,0.0
6160,43,1,36425042,1300860756,1307631886,44872595,PBC875697,7,393.72,L,1.0,0.0
6160,44,1,36425042,1300860756,1307639604,44872595,GI1KTL03,1,40.34,L,4.0,0.0
6133,1,1,36654702,1311532157,1311533347,44481939,10143532/110925/6x1,1,9.88,L,12.0,0.0
6133,2,1,36654702,1311532157,1315559353,44481939,E250569/13,1,8.74,M,1.0,0.0
6133,3,1,36654702,1311532157,1311533292,45335126,E250569/12,1,19.11,L,2.0,0.0
6133,4,1,36654702,1311532157,1311533347,45335126,10143532/110925/6x1,1,9.88,L,12.0,0.0
6133,5,1,36654702,1311532157,1315559353,45335126,E250569/13,1,8.74,M,1.0,0.0
6133,6,1,36425042,1300860756,1307658183,44872595,263197/161025/3,1,77.18,L,2.0,0.0
6133,7,1,36425042,1300860756,1307658191,44872595,263197/161025/1,1,45.73,L,2.0,0.0
6133,8,1,36425042,1300860756,1307658197,44872595,263197/161025/2,1,41.57,L,2.0,0.0
6133,9,1,36425042,1300860756,1311156258,44872595,3907/2208.2025,1,18.7,L,80.0,0.0
6133,10,1,45794728,1312063269,1312063363,45274291,090226/3,1,18.00205965697,L,4.0,0.0
6133,11,1,45794728,1312063269,1312063383,45274291,090226/4,1,169.689965745717,L,4.0,0.0
6133,12,1,45794728,1312063269,0,48988758,090226/5,1,149.42000000000002,M,4.0,0.0
6133,13,1,45794728,1312063269,1312063346,48988758,090226/2,1,26.59,M,8.0,0.0
6133,14,1,45794728,1312063269,1312063363,48988758,090226/3,1,9.48,M,4.0,0.0
6133,15,1,45794728,1312063269,1312063383,48988758,090226/4,1,86.76,M,4.0,0.0
6133,16,1,34704435,1308348189,0,41327675,120226/1,1,1.152590851724138,L,20.0,0.0
6133,17,1,43116945,1300860652,1300860680,47139275,16584381,1,1.35,L,2.0,0.0
6133,18,1,43116945,1300860652,1305659958,47139275,261780/190925,1,78.336,L,2.0,0.0
6133,19,1,34704435,1308348189,1308348266,41327675,6722/180925,1,25.635,M,0.46,0.0
6133,20,1,38161649,1308344164,0,41023831,120226/2,1,0.928475963888889,L,20.0,0.0
6133,21,1,38161649,1308344164,1308344271,41023831,1184242/270126/2,1,25.635,M,0.37,0.0
6133,22,1,34897389,1308344782,0,38130777,120226/3,1,3.7313730182131386,L,20.0,0.0
6133,23,1,34897389,1308344782,1308344841,38130777,10144596/101025/1,1,13.068572,M,2.92,0.0
6133,24,1,40798683,1308351747,0,49937303,120226/4,1,6.3955641,L,20.0,0.0
6133,25,1,40798683,1308351747,1308351779,49937303,120226/1,1,0.76,M,20.0,0.0
6133,26,1,40798683,1308351747,1308351791,49937303,120226/2,1,0.6,M,20.0,0.0
6133,27,1,40798683,1308351747,1308351801,49937303,120226/3,1,1.91,M,20.0,0.0
6133,28,1,48498399,1310539391,0,41850638,120226/5,1,46.80431578666668,L,6.6,0.0
6133,29,1,48498399,1310539391,1310539433,41850638,181125/2,1,0.51,M,0.44,0.0
6133,30,1,48498399,1310539391,1310634354,41850638,5166101/081025/2,1,18.5,M,5.06,0.0
6133,31,1,39297021,1300860839,1300860893,36945574,10143532/110925/f50,1,692.79,L,2.0,0.0
6133,32,1,39297021,1300860839,1300860900,36945574,1419195/040925/2,1,426.24,L,5.0,0.0
6133,33,1,39297021,1300860839,1300860900,36945574,28082025/40,2,355.203,L,5.0,0.0
6133,34,1,39297021,1300860839,1300860910,36945574,10142820/19082025,1,5.81,L,2.0,0.0
6133,35,1,39297021,1300860839,1300860910,36945574,56198161,2,5.81,L,6.0,0.0
6133,36,1,39297021,1300860839,1300860911,36945574,10143532/110925/1.1/2,1,5.44,L,4.0,0.0
6133,37,1,39297021,1300860839,1300860932,36945574,090925/16,1,0.0,L,10.0,0.0
6133,38,1,39297021,1300860839,1300860933,36945574,12345,1,0.0,L,8.0,0.0
6133,39,1,39297021,1300860839,1300860934,36945574,151025,1,0.0,L,50.0,0.0
6133,40,1,39297021,1300860839,1300860935,36945574,12345/12,1,25.97,L,88.0,0.0
6133,41,1,39297021,1300860839,1300860938,36945574,091025/3,1,0.0,L,10.0,0.0
6133,42,1,39297021,1300860839,1300860939,36945574,250725,1,0.0,L,82.0,0.0
6133,43,1,39297021,1300860839,1300860940,36945574,101025,1,0.0,L,16.0,0.0
6165,1,1,48498399,1310539391,1310634540,41850638,5166101/081025/1,1,14.5,M,2.2,0.0
6165,2,1,43480505,1308356621,0,37416099,120226/6,1,176.54671102700001,L,20.0,0.0
6165,3,1,43480505,1308356621,1308356653,37416099,120226/4,1,3.28,M,20.0,0.0
6165,4,1,43480505,1308356621,1308356672,37416099,0005330327,1,8.7,M,19.0,0.0
6165,5,1,43480505,1308356621,1308356672,37416099,0005335353,2,8.7,M,1.0,0.0
6165,6,1,43480505,1308356621,1308356693,37416099,0005550271,1,69.26,M,20.0,0.0
6165,7,1,43480505,1308356621,1310744658,37416099,120226/5,1,23.93,M,6.6,0.0
6165,8,1,43116945,1300860652,1305941685,47139275,3899-00,1,1.56,L,5.0,0.0
6165,9,1,44642751,1312037749,0,46085756,130326/1,1,20.190842,M,2.0,0.0
6165,10,1,46928733,1312040009,0,40771899,130326/2,1,25.98928,M,2.0,0.0
6165,11,1,46928733,1312040009,1312038593,40771899,130326/1,1,20.19,M,2.0,0.0
6165,12,1,43116945,1300860652,1300860680,46613752,16584381,1,1.35,L,2.0,0.0
6165,13,1,43116945,1300860652,1305659958,46613752,261780/190925,1,78.336,L,2.0,0.0
6165,14,1,43116945,1300860652,1305941685,46613752,3899-00,1,1.56,L,5.0,0.0
6165,15,1,43116945,1300860652,1305941975,46613752,031025/3,1,0.0,L,10.0,0.0
6165,16,1,43116945,1300860652,1305941990,46613752,031025/2,1,0.0,L,10.0,0.0
6165,17,1,43116945,1300860652,1305941990,46613752,090925/1,2,0.0,L,20.0,0.0
6165,18,1,43116945,1300860652,1305942006,46613752,031025/1,1,0.0,L,20.0,0.0
6165,19,1,43116945,1300860652,1305943164,46613752,ta-025clem14-a-zvg/us,1,202.07,L,6.0,0.0
6165,20,1,43116945,1300860652,1306933188,46613752,25689,1,639.432,L,2.0,0.0
6165,21,1,43116945,1300860652,1306933262,46613752,28082025/31,1,0.0,L,2.0,0.0
6165,22,1,43116945,1300860652,1306955469,46613752,143284/02092025/2,1,4.02,L,6.0,0.0
6165,23,1,43116945,1300860652,1306955493,46613752,07082025,1,4.548,L,4.0,0.0
6165,24,1,43116945,1300860652,1306955518,46613752,143284/02092025/6,1,1.94,L,2.0,0.0
6165,25,1,43116945,1300860652,1306955547,46613752,131025,1,0.0,L,2.0,0.0
6165,26,1,43116945,1300860652,1306955564,46613752,10143120/27082025/3,1,21.62,L,1.0,0.0
6165,27,1,43116945,1300860652,1307032597,46613752,1234567,1,0.0,L,3.0,0.0
6165,28,1,43116945,1300860652,1311156136,46613752,3907/2208.2025,1,18.7,L,130.0,0.0
6165,29,1,33563746,1312062665,0,47875829,130326/3,1,8.2208,M,1.0,0.0
6165,30,1,34223473,1312034596,0,46441739,160226/4,1,15.1392969,M,1.0,0.0
6165,31,1,47052848,1312049510,0,41239097,130326/4,1,86.7601099,M,1.0,0.0
6165,32,1,35253452,1312063269,0,35646698,130326/5,1,163.73000000000002,M,1.0,0.0
6165,33,1,35253452,1312063269,1312063346,35646698,130326/2,1,26.31,M,2.0,0.0
6165,34,1,35253452,1312063269,1312063363,35646698,130326/3,1,9.21,M,1.0,0.0
6165,35,1,35253452,1312063269,1312063383,35646698,130326/4,1,86.76,M,1.0,0.0
6165,36,1,43116945,1300860652,1305941975,47139275,031025/3,1,0.0,L,10.0,0.0
6165,48,1,39297021,1300860839,1300860957,36945574,12314,1,2.67,L,44.0,0.0
6165,49,1,39297021,1300860839,1300860960,36945574,031125/2,1,187.44,L,3.0,0.0
6165,50,1,39297021,1300860839,1300860980,36945574,po32235,1,169.49,L,15.0,0.0
6165,51,1,39297021,1300860839,1300860982,36945574,pbc853533,1,374.85,L,1.0,0.0
6165,52,1,39297021,1300860839,1300861051,36945574,48078/121125/2,1,8.56,L,3.0,0.0
6165,53,1,39297021,1300860839,1300861087,36945574,3907/22082025,1,135.42,L,276.0,0.0
6165,54,1,39297021,1300860839,1300861102,36945574,246/141025,1,82.00069,M,5.0,0.0
6170,1,1,35253452,1312063269,1319554947,35646698,160226/4,1,15.14,M,1.0,0.0
6170,2,1,36444547,1308344782,0,47051795,130326/11,1,1.8305084745762712,M,10.0,0.0
6170,3,1,46263368,1308344164,0,36268270,130326/12,1,0.4747222222222222,M,10.0,0.0
6170,4,1,46263368,1308344164,1308344271,36268270,6722/180925,1,25.635,M,0.19,0.0
6170,5,1,46947183,1308348189,0,49595758,130326/13,1,0.5893103448275863,M,10.0,0.0
6170,6,1,46947183,1308348189,1308348266,49595758,6722/180925,1,25.635,M,0.23,0.0
6170,7,1,43656528,1310539391,0,44713511,130326/14,1,23.93066666666667,M,3.3,0.0
6170,8,1,43656528,1310539391,1310539433,44713511,181125/2,1,0.51,M,0.22,0.0
6170,9,1,43656528,1310539391,1310634354,44713511,5166101/081025/2,1,18.5,M,2.53,0.0
6170,10,1,43656528,1310539391,1310634540,44713511,5166101/081025/1,1,14.5,M,1.1,0.0
6170,11,1,35133179,1308351747,0,46162283,130326/15,1,3.2699999999999996,M,10.0,0.0
6170,12,1,35133179,1308351747,1308351779,46162283,130326/13,1,0.76,M,10.0,0.0
6170,13,1,35133179,1308351747,1308351791,46162283,130326/12,1,0.6,M,10.0,0.0
6170,14,1,35133179,1308351747,1308351801,46162283,130326/11,1,1.91,M,10.0,0.0
6170,15,1,35662472,1308356621,0,35118242,130326/16,1,90.2669,M,10.0,0.0
6170,16,1,35662472,1308356621,1308356653,35118242,130326/15,1,3.28,M,10.0,0.0
6170,17,1,35662472,1308356621,1308356672,35118242,0005335353,1,8.7,M,10.0,0.0
6170,18,1,35662472,1308356621,1308356693,35118242,0005550271,1,69.26,M,10.0,0.0
6170,19,1,35662472,1308356621,1310744658,35118242,130326/14,1,23.93,M,3.3,0.0
6170,56,1,39297021,1300860839,1300861123,36945574,1013328/071125,1,220.4,L,2.0,0.0
6170,57,1,39297021,1300860839,1302357922,36945574,VMA2025081801/18082025/1,1,157.99,L,110.0,0.0
6170,58,1,39297021,1300860839,1302357922,36945574,VMA20250921/141025/2,2,157.99,L,100.0,0.0
6170,59,1,39297021,1300860839,1302362619,36945574,164578/1,1,4.95,L,25.0,0.0
6170,60,1,39297021,1300860839,1305662027,36945574,28082025/17,1,13.34,L,26.0,0.0
6170,61,1,39297021,1300860839,1305935013,36945574,36392/300925,1,14.71,L,6.0,0.0
6170,62,1,39297021,1300860839,1306335374,36945574,090925/11,1,2.13,L,35.0,0.0
6170,63,1,39297021,1300860839,1306335374,36945574,10143532/110925/pfte40,2,2.13,L,54.0,0.0
6170,64,1,39297021,1300860839,1306335374,36945574,10144231/011025/ptfe40,3,2.13,L,25.0,0.0
6170,65,1,39297021,1300860839,1306338159,36945574,10143532/110925/pfte50,1,4.22,L,19.0,0.0
6170,66,1,39297021,1300860839,1306433181,36945574,090825/12,1,0.0,L,70.0,0.0
6170,67,1,39297021,1300860839,1306433181,36945574,10524822/311025/1,2,0.1223,L,40.0,0.0
6170,68,1,39297021,1300860839,1306433182,36945574,081025/1,1,0.0,L,20.0,0.0
6170,69,1,39297021,1300860839,1306435854,36945574,4170/021025,1,211.98,L,4.0,0.0
6170,70,1,39297021,1300860839,1306453001,36945574,340045082/081025,1,0.71,L,50.0,0.0
6283,9,1,39297021,1300860839,1306641385,36945574,smr21xgxfrkg,1,1001.9065,L,2.0,0.0
6283,10,1,39297021,1300860839,1306643388,36945574,07082025,1,3.912,L,13.0,0.0
6283,11,1,39297021,1300860839,1306643602,36945574,143284/02092025/2,1,4.02,L,2.0,0.0
6283,12,1,39297021,1300860839,1306644777,36945574,10144596/101025/4,1,1.61,L,2.0,0.0
6283,13,1,39297021,1300860839,1306644795,36945574,10144596/101025/3,1,960.0,L,2.0,0.0
6283,14,1,39297021,1300860839,1306935032,36945574,36392/300925,1,14.71,L,6.0,0.0
6283,15,1,43116945,1300860652,1305941990,47139275,031025/2,1,0.0,L,10.0,0.0
6283,16,1,43116945,1300860652,1305941990,47139275,090925/1,2,0.0,L,20.0,0.0
6283,17,1,43116945,1300860652,1305942006,47139275,031025/1,1,0.0,L,20.0,0.0
6283,18,1,43116945,1300860652,1305943164,47139275,ta-025clem14-a-zvg/us,1,202.07,L,6.0,0.0
6283,19,1,43116945,1300860652,1306933188,47139275,25689,1,639.432,L,2.0,0.0
6283,20,1,43116945,1300860652,1306933262,47139275,28082025/31,1,0.0,L,2.0,0.0
6283,21,1,43116945,1300860652,1306955469,47139275,143284/02092025/2,1,4.02,L,6.0,0.0
6283,22,1,43116945,1300860652,1306955493,47139275,07082025,1,4.548,L,4.0,0.0
6283,23,1,43116945,1300860652,1306955518,47139275,143284/02092025/6,1,1.94,L,2.0,0.0
6283,24,1,43116945,1300860652,1306955547,47139275,131025,1,0.0,L,2.0,0.0
6283,25,1,43116945,1300860652,1306955564,47139275,10143120/27082025/3,1,21.62,L,1.0,0.0
6283,26,1,43116945,1300860652,1307032597,47139275,1234567,1,0.0,L,3.0,0.0
6283,27,1,43116945,1300860652,1311156136,47139275,3907/2208.2025,1,18.7,L,130.0,0.0
6283,28,1,49281320,1312037749,0,37015689,160226/1,1,39.48985450886,L,4.0,0.0
6283,29,1,49967252,1312040009,1312038593,48819410,160226/1,1,20.19,M,4.0,0.0
6283,30,1,49967252,1312040009,1312038665,48819410,10143532/110925/33.7,1,11.544970677410612,M,0.25,0.0
6283,31,1,49967252,1312040009,0,37751761,160226/2,1,51.4496497,L,4.0,0.0
6283,32,1,49967252,1312040009,1312038593,37751761,160226/1,1,20.19,M,4.0,0.0
6283,33,1,49967252,1312040009,1312038665,37751761,10143532/110925/33.7,1,11.544970677410612,M,0.248,0.0
6283,34,1,39297021,1300860839,1306936237,36945574,28082025/16,1,0.0,L,7.0,0.0
6283,35,1,39297021,1300860839,1306936250,36945574,28082025/20,1,0.0,L,4.0,0.0
6283,36,1,39297021,1300860839,1306936441,36945574,12,1,0.0,L,1.0,0.0
6283,37,1,39297021,1300860839,1307035191,36945574,25697,1,639.43,L,1.0,0.0
6283,38,1,39297021,1300860839,1307035191,36945574,25701,2,639.43,L,1.0,0.0
6283,39,1,39297021,1300860839,1307035191,36945574,25702,3,639.43,L,1.0,0.0
6283,40,1,39297021,1300860839,1307035191,36945574,52694,4,639.43,L,1.0,0.0
6283,41,1,39297021,1300860839,1307036769,36945574,10143532/110925/t1.1/2`,1,16.85,L,17.0,0.0
6283,42,1,39297021,1300860839,1307051478,36945574,2916800002/3,1,6981.22,L,1.0,0.0
7250,8,1,39297021,1300860839,1307051483,36945574,2916800001/1,1,6323.77,L,1.0,0.0
7250,9,1,39297021,1300860839,1307132738,36945574,ta-025clem14-a-zvg/us,1,202.07,L,6.0,0.0
7250,10,1,39297021,1300860839,1307132738,36945574,082025,2,206.69,L,2.0,0.0
7250,11,1,39297021,1300860839,1307137652,36945574,VMA2025081801/18082025/2,1,180.99,L,184.0,0.0
7250,12,1,39297021,1300860839,1307137664,36945574,VMA2025081801/18082025/1,1,264.84,L,90.0,0.0
7250,13,1,39297021,1300860839,1307137786,36945574,1216/230925,1,117.59,L,88.0,0.0
7250,14,1,39297021,1300860839,1307658498,36945574,12345,1,0.0,L,133.0,0.0
7250,15,1,39297021,1300860839,1307658506,36945574,201025/6,1,0.0,L,8.0,0.0
7250,16,1,39297021,1300860839,1307658514,36945574,10527503/071125/3,1,0.01,L,65.0,0.0
7250,17,1,39297021,1300860839,1307658514,36945574,201025/7,2,0.0,L,112.0,0.0
7250,18,1,39297021,1300860839,1307740592,36945574,090925/12,1,1.8,L,4.0,0.0
7250,19,1,39297021,1300860839,1307740592,36945574,10143532/110925/pfte25,2,1.8,L,37.0,0.0
7250,20,1,39297021,1300860839,1307745466,36945574,090925/6,1,1.0,L,26.0,0.0
7250,21,1,39297021,1300860839,1307745475,36945574,061125/1,1,1.83,L,47.0,0.0
7250,22,1,39297021,1300860839,1307842260,36945574,07082025,1,3.6,L,25.0,0.0
7250,23,1,39297021,1300860839,1307842275,36945574,10143532/110925/2.,1,8.16,L,2.0,0.0
7250,24,1,39297021,1300860839,1307842603,36945574,10143120/27082025/2,1,104.4,L,2.0,0.0
7250,25,1,39297021,1300860839,1307930327,36945574,168143,1,75.14,L,4.0,0.0
7250,26,1,39297021,1300860839,1307930327,36945574,263496/221025,2,75.14,L,4.0,0.0
7250,27,1,39297021,1300860839,1308433881,36945574,167415/271025,1,2.16,L,6.0,0.0
7250,28,1,39297021,1300860839,1308443911,36945574,122217/18082025,1,31.2,L,31.0,0.0
7250,29,1,39297021,1300860839,1308638865,36945574,241025/1,1,0.0,L,122.0,0.0
7250,30,1,39297021,1300860839,1308638996,36945574,090825/12,1,0.0,L,50.0,0.0
7250,31,1,39297021,1300860839,1308732040,36945574,10145394/291025,1,47.68,L,3.0,0.0
7250,32,1,39297021,1300860839,1309340375,36945574,241025/26,1,0.0,L,30.0,0.0
7250,33,1,39297021,1300860839,1309340538,36945574,261922/240925,1,1.84,L,12.0,0.0
7250,34,1,39297021,1300860839,1309340606,36945574,10143532/110925/1.4,1,1.49,L,9.0,0.0
7250,35,1,39297021,1300860839,1309432171,36945574,38838/27082025,1,54.566,L,4.0,0.0
7250,36,1,39297021,1300860839,1309735262,36945574,167992/071125/2,1,1.08,L,6.0,0.0
7250,37,1,39297021,1300860839,1309735269,36945574,167992/071125/3,1,0.81,L,6.0,0.0
7250,38,1,39297021,1300860839,1309735279,36945574,167992/071125/4,1,10.71,L,4.0,0.0
7250,41,1,39297021,1300860839,1309836633,36945574,1459019554/071125/9,1,534.888,L,1.0,0.0
7250,42,1,39297021,1300860839,1309836639,36945574,1459019733/101125/1,1,722.93,L,1.0,0.0
7250,43,1,39297021,1300860839,1309861257,36945574,1419195/040925/6,1,510.96,L,2.0,0.0
7250,44,1,39297021,1300860839,1309861377,36945574,1459017916/161025,1,3.5699999999999994,L,13.0,0.0
7250,45,1,39297021,1300860839,1309953161,36945574,10524822/311025/5,1,0.0507,L,40.0,0.0
7250,46,1,39297021,1300860839,1310454337,36945574,48078/121125/1,1,16.05,L,1.0,0.0
7659,0,1,39297021,1300860839,1300860882,46494003,10143532/110925/6`,2,39.49,L,4.0,0.0
7659,1,1,39297021,1300860839,1300860883,46494003,10143532/110925/4`,1,15.619999999999997,L,6.0,0.0
7659,2,1,39297021,1300860839,1300860885,46494003,10143532/110925/40,1,21.5437,L,22.0,0.0
7659,3,1,39297021,1300860839,1300860886,46494003,10143532/110925/50,1,20.7466,L,2.0,0.0
7659,4,1,39297021,1300860839,1300860893,46494003,10143532/110925/f50,1,692.79,L,2.0,0.0
7659,5,1,39297021,1300860839,1300860900,46494003,1419195/040925/2,1,426.24,L,5.0,0.0
7659,6,1,39297021,1300860839,1300860900,46494003,28082025/40,2,355.203,L,5.0,0.0
7659,7,1,39297021,1300860839,1300860910,46494003,10142820/19082025,1,5.81,L,2.0,0.0
7659,8,1,39297021,1300860839,1300860910,46494003,56198161,2,5.81,L,6.0,0.0
7659,9,1,39297021,1300860839,1300860911,46494003,10143532/110925/1.1/2,1,5.44,L,4.0,0.0
7659,10,1,39297021,1300860839,1300860932,46494003,090925/16,1,0.0,L,10.0,0.0
7659,11,1,39297021,1300860839,1300860933,46494003,12345,1,0.0,L,8.0,0.0
7659,12,1,39297021,1300860839,1300860934,46494003,151025,1,0.0,L,50.0,0.0
7659,13,1,39297021,1300860839,1300860935,46494003,12345/12,1,25.97,L,88.0,0.0
7659,14,1,39297021,1300860839,1300860938,46494003,091025/3,1,0.0,L,10.0,0.0
7659,15,1,39297021,1300860839,1300860939,46494003,250725,1,0.0,L,82.0,0.0
7659,16,1,39297021,1300860839,1300860940,46494003,101025,1,0.0,L,16.0,0.0
7659,17,1,39297021,1300860839,1300860957,46494003,12314,1,2.67,L,44.0,0.0
7659,18,1,39297021,1300860839,1300860960,46494003,031125/2,1,187.44,L,3.0,0.0
7659,19,1,39297021,1300860839,1300860980,46494003,po32235,1,169.49,L,15.0,0.0
7659,20,1,39297021,1300860839,1300860982,46494003,pbc853533,1,374.85,L,1.0,0.0
7659,21,1,39297021,1300860839,1300861051,46494003,48078/121125/2,1,8.56,L,3.0,0.0
7659,22,1,39297021,1300860839,1300861087,46494003,3907/22082025,1,135.42,L,276.0,0.0
7659,23,1,39297021,1300860839,1300861102,46494003,246/141025,1,82.00069,M,5.0,0.0
7659,24,1,39297021,1300860839,1300861123,46494003,1013328/071125,1,220.4,L,2.0,0.0
7659,25,1,39297021,1300860839,1302357922,46494003,VMA2025081801/18082025/1,1,157.99,L,110.0,0.0
7659,26,1,39297021,1300860839,1302357922,46494003,VMA20250921/141025/2,2,157.99,L,100.0,0.0
7659,27,1,39297021,1300860839,1302362619,46494003,164578/1,1,4.95,L,25.0,0.0
7659,28,1,39297021,1300860839,1305662027,46494003,28082025/17,1,13.34,L,26.0,0.0
7659,29,1,39297021,1300860839,1305935013,46494003,36392/300925,1,14.71,L,6.0,0.0
7659,30,1,39297021,1300860839,1306335374,46494003,090925/11,1,2.13,L,35.0,0.0
7659,31,1,39297021,1300860839,1306335374,46494003,10143532/110925/pfte40,2,2.13,L,54.0,0.0
7659,32,1,39297021,1300860839,1306335374,46494003,10144231/011025/ptfe40,3,2.13,L,25.0,0.0
7659,33,1,39297021,1300860839,1306338159,46494003,10143532/110925/pfte50,1,4.22,L,19.0,0.0
7659,34,1,39297021,1300860839,1306433181,46494003,090825/12,1,0.0,L,70.0,0.0
7659,35,1,39297021,1300860839,1306433181,46494003,10524822/311025/1,2,0.1223,L,40.0,0.0
7659,36,1,39297021,1300860839,1306433182,46494003,081025/1,1,0.0,L,20.0,0.0
7659,37,1,39297021,1300860839,1306435854,46494003,4170/021025,1,211.98,L,4.0,0.0
7659,38,1,39297021,1300860839,1306453001,46494003,340045082/081025,1,0.71,L,50.0,0.0
7659,39,1,39297021,1300860839,1306641385,46494003,smr21xgxfrkg,1,1001.9065,L,2.0,0.0
7659,40,1,39297021,1300860839,1306643388,46494003,07082025,1,3.912,L,13.0,0.0
7659,41,1,39297021,1300860839,1306643602,46494003,143284/02092025/2,1,4.02,L,2.0,0.0
7392,68,1,39297021,1300860839,1310454360,36945574,48078/121125/3,1,22.59,L,2.0,0.0
7392,69,1,39297021,1300860839,1310457733,36945574,28082025/8,1,94.15,L,60.0,0.0
7392,70,1,39297021,1300860839,1310534144,36945574,192741/031025,1,108.0,L,4.0,0.0
7392,71,1,39297021,1300860839,1310534161,36945574,24607/04.2024,1,0.0,L,5.0,0.0
7392,72,1,39297021,1300860839,1310535855,36945574,1658148,1,0.0,L,2.0,0.0
7392,73,1,39297021,1300860839,1310535883,36945574,16814612,1,0.0,L,2.0,0.0
7392,74,1,39297021,1300860839,1310632444,36945574,10143532/110925/1.2,1,2.64,L,18.0,0.0
7392,75,1,39297021,1300860839,1310632444,36945574,16818,2,1.53,L,29.0,0.0
7392,76,1,39297021,1300860839,1310759265,36945574,42503561/101125,1,3375.7,L,2.0,0.0
7667,0,1,39297021,1300860839,1306644777,46494003,10144596/101025/4,1,1.61,L,2.0,0.0
7667,1,1,39297021,1300860839,1306644795,46494003,10144596/101025/3,1,960.0,L,2.0,0.0
7667,2,1,39297021,1300860839,1306935032,46494003,36392/300925,1,14.71,L,6.0,0.0
7667,3,1,39297021,1300860839,1306936237,46494003,28082025/16,1,0.0,L,7.0,0.0
7667,4,1,39297021,1300860839,1306936250,46494003,28082025/20,1,0.0,L,4.0,0.0
7667,5,1,39297021,1300860839,1306936441,46494003,12,1,0.0,L,1.0,0.0
7667,6,1,39297021,1300860839,1307035191,46494003,25697,1,639.43,L,1.0,0.0
7667,7,1,39297021,1300860839,1307035191,46494003,25701,2,639.43,L,1.0,0.0
7667,8,1,39297021,1300860839,1307035191,46494003,25702,3,639.43,L,1.0,0.0
7667,9,1,39297021,1300860839,1307035191,46494003,52694,4,639.43,L,1.0,0.0
7667,10,1,39297021,1300860839,1307036769,46494003,10143532/110925/t1.1/2`,1,16.85,L,17.0,0.0
7667,11,1,39297021,1300860839,1307051478,46494003,2916800002/3,1,6981.22,L,1.0,0.0
7667,12,1,39297021,1300860839,1307051483,46494003,2916800001/1,1,6323.77,L,1.0,0.0
7667,13,1,39297021,1300860839,1307132738,46494003,ta-025clem14-a-zvg/us,1,202.07,L,6.0,0.0
7667,14,1,39297021,1300860839,1307132738,46494003,082025,2,206.69,L,2.0,0.0
7667,15,1,39297021,1300860839,1307137652,46494003,VMA2025081801/18082025/2,1,180.99,L,184.0,0.0
7667,16,1,39297021,1300860839,1307137664,46494003,VMA2025081801/18082025/1,1,264.84,L,90.0,0.0
7667,17,1,39297021,1300860839,1307137786,46494003,1216/230925,1,117.59,L,88.0,0.0
7667,18,1,39297021,1300860839,1307658498,46494003,12345,1,0.0,L,133.0,0.0
7667,19,1,39297021,1300860839,1307658506,46494003,201025/6,1,0.0,L,8.0,0.0
7667,20,1,39297021,1300860839,1307658514,46494003,10527503/071125/3,1,0.01,L,65.0,0.0
7667,21,1,39297021,1300860839,1307658514,46494003,201025/7,2,0.0,L,112.0,0.0
7667,22,1,39297021,1300860839,1307740592,46494003,090925/12,1,1.8,L,4.0,0.0
7667,23,1,39297021,1300860839,1307740592,46494003,10143532/110925/pfte25,2,1.8,L,37.0,0.0
7667,24,1,39297021,1300860839,1307745466,46494003,090925/6,1,1.0,L,26.0,0.0
7667,25,1,39297021,1300860839,1307745475,46494003,061125/1,1,1.83,L,47.0,0.0
7667,26,1,39297021,1300860839,1307842260,46494003,07082025,1,3.6,L,25.0,0.0
7667,27,1,39297021,1300860839,1307842275,46494003,10143532/110925/2.,1,8.16,L,2.0,0.0
7667,28,1,39297021,1300860839,1307842603,46494003,10143120/27082025/2,1,104.4,L,2.0,0.0
7667,29,1,39297021,1300860839,1307930327,46494003,168143,1,75.14,L,4.0,0.0
7667,30,1,39297021,1300860839,1307930327,46494003,263496/221025,2,75.14,L,4.0,0.0
7667,31,1,39297021,1300860839,1308433881,46494003,167415/271025,1,2.16,L,6.0,0.0
7667,32,1,39297021,1300860839,1308443911,46494003,122217/18082025,1,31.2,L,31.0,0.0
7667,33,1,39297021,1300860839,1308638865,46494003,241025/1,1,0.0,L,122.0,0.0
7667,34,1,39297021,1300860839,1308638996,46494003,090825/12,1,0.0,L,50.0,0.0
7667,35,1,39297021,1300860839,1308732040,46494003,10145394/291025,1,47.68,L,3.0,0.0
7667,36,1,39297021,1300860839,1309340375,46494003,241025/26,1,0.0,L,30.0,0.0
7667,37,1,39297021,1300860839,1309340538,46494003,261922/240925,1,1.84,L,12.0,0.0
7667,38,1,39297021,1300860839,1309340606,46494003,10143532/110925/1.4,1,1.49,L,9.0,0.0
7667,39,1,39297021,1300860839,1309432171,46494003,38838/27082025,1,54.566,L,4.0,0.0
7667,40,1,39297021,1300860839,1309735262,46494003,167992/071125/2,1,1.08,L,6.0,0.0
7667,41,1,39297021,1300860839,1309735269,46494003,167992/071125/3,1,0.81,L,6.0,0.0
7667,42,1,39297021,1300860839,1309735279,46494003,167992/071125/4,1,10.71,L,4.0,0.0
7669,0,1,39297021,1300860839,1309836633,46494003,1459019554/071125/9,1,534.888,L,1.0,0.0
7669,1,1,39297021,1300860839,1309836639,46494003,1459019733/101125/1,1,722.93,L,1.0,0.0
7669,2,1,39297021,1300860839,1309861257,46494003,1419195/040925/6,1,510.96,L,2.0,0.0
7669,3,1,39297021,1300860839,1309861377,46494003,1459017916/161025,1,3.5699999999999994,L,13.0,0.0
7669,4,1,39297021,1300860839,1309953161,46494003,10524822/311025/5,1,0.0507,L,40.0,0.0
7669,5,1,39297021,1300860839,1310454337,46494003,48078/121125/1,1,16.05,L,1.0,0.0
7669,6,1,39297021,1300860839,1310454360,46494003,48078/121125/3,1,22.59,L,2.0,0.0
7669,7,1,39297021,1300860839,1310457733,46494003,28082025/8,1,94.15,L,60.0,0.0
7669,8,1,39297021,1300860839,1310534144,46494003,192741/031025,1,108.0,L,4.0,0.0
7669,9,1,39297021,1300860839,1310534161,46494003,24607/04.2024,1,0.0,L,5.0,0.0
7669,10,1,39297021,1300860839,1310535855,46494003,1658148,1,0.0,L,2.0,0.0
7669,11,1,39297021,1300860839,1310535883,46494003,16814612,1,0.0,L,2.0,0.0
7669,12,1,39297021,1300860839,1310632444,46494003,10143532/110925/1.2,1,2.64,L,18.0,0.0
7669,13,1,39297021,1300860839,1310632444,46494003,16818,2,1.53,L,29.0,0.0
7669,14,1,39297021,1300860839,1310759265,46494003,42503561/101125,1,3375.7,L,2.0,0.0
7669,15,1,39297021,1300860839,1310843661,46494003,10505475/020925,1,0.48228,L,400.0,0.0
7669,16,1,39297021,1300860839,1310843661,46494003,340046105/181125,2,0.4,L,21.0,0.0
7669,17,1,39297021,1300860839,1310843661,46494003,60055380/181125,3,0.4,L,100.0,0.0
7669,18,1,39297021,1300860839,1311140425,46494003,1459020722/211125/1,1,1.76,L,10.0,0.0
7669,19,1,39297021,1300860839,1311140434,46494003,1459020722/211125/2,1,2.12,L,6.0,0.0
7669,20,1,39297021,1300860839,1311142809,46494003,81288/211125/2,1,14.85,L,30.0,0.0
7669,21,1,39297021,1300860839,1311142817,46494003,81288/211125/3,1,2.7,L,10.0,0.0
7669,22,1,39297021,1300860839,1311155968,46494003,07082025,1,4.548,L,23.0,0.0
7669,23,1,39297021,1300860839,1311156319,46494003,3907/2208.2025,1,18.7,L,510.0,0.0
7669,24,1,39297021,1300860839,1311163148,46494003,241025/28,1,16.94,L,8.0,0.0
7669,25,1,39297021,1300860839,1311163196,46494003,4033/171125,1,105.0,L,4.0,0.0
7669,26,1,39297021,1300860839,1311164039,46494003,97611/130825,1,450.38,L,44.0,0.0
7669,27,1,39297021,1300860839,1311164046,46494003,97611/130825/2,1,1129.72,L,2.0,0.0
7669,28,1,39297021,1300860839,1311451226,46494003,213483/271125/1,1,15.64,L,100.0,0.0
7669,29,1,39297021,1300860839,1311451233,46494003,213483/271125/2,1,15.64,L,100.0,0.0
7669,30,1,39297021,1300860839,1311451241,46494003,213483/271125/3,1,2.12,L,50.0,0.0
7669,31,1,39297021,1300860839,1312156912,46494003,26765/171125/1,1,11.25,L,8.0,0.0
7669,32,1,39297021,1300860839,1312156919,46494003,26765/171125/2,1,0.5,L,10.0,0.0
7669,33,1,39297021,1300860839,1312551440,46494003,201025/6,1,0.0,L,5.0,0.0
7669,34,1,39297021,1300860839,1312551454,46494003,12345,1,0.0,L,37.0,0.0
7669,35,1,39297021,1300860839,1312551467,46494003,10527503/071125/2,1,0.09,L,4.0,0.0
7669,36,1,39297021,1300860839,1312761932,46494003,E250569/14,1,17.09,L,2.0,0.0
7669,37,1,39297021,1300860839,1312845174,46494003,29512/101225/1,1,165.3,L,1.0,0.0
7669,38,1,39297021,1300860839,1312845181,46494003,29512/101225/2,1,112.14,L,1.0,0.0
7669,39,1,39297021,1300860839,1312933207,46494003,661/181125/3,1,180.0,L,1.0,0.0
7669,40,1,39297021,1300860839,1312933960,46494003,25070100119,1,346.8,L,1.0,0.0
7669,41,1,39297021,1300860839,1312933966,46494003,213814/130825,1,270.3,L,1.0,0.0
7670,0,1,39297021,1300860839,1316041199,46494003,080825/49,1,2.955256,M,14.0,0.0
7670,1,1,39297021,1300860839,1316041199,46494003,1459019939/121125/13,2,2.955256,M,3.0,0.0
7670,2,1,39297021,1300860839,1320961643,46494003,281125/1,1,12006.22,L,1.0,0.0
7660,1,1,39297021,1300860839,1310843661,36945574,60055380/181125,1,0.4,L,100.0,0.0
7660,2,1,39297021,1300860839,1310843661,36945574,10505475/020925,2,0.48228,L,400.0,0.0
7660,3,1,39297021,1300860839,1310843661,36945574,340046105/181125,3,0.4,L,21.0,0.0
7660,4,1,39297021,1300860839,1311140425,36945574,1459020722/211125/1,1,1.76,L,10.0,0.0
7660,5,1,39297021,1300860839,1311140434,36945574,1459020722/211125/2,1,2.12,L,6.0,0.0
7660,6,1,39297021,1300860839,1311142809,36945574,81288/211125/2,1,14.85,L,30.0,0.0
7660,7,1,39297021,1300860839,1311142817,36945574,81288/211125/3,1,2.7,L,10.0,0.0
7660,8,1,39297021,1300860839,1311155968,36945574,07082025,1,4.548,L,23.0,0.0
7660,9,1,39297021,1300860839,1311156319,36945574,3907/2208.2025,1,18.7,L,510.0,0.0
7660,10,1,39297021,1300860839,1311163148,36945574,241025/28,1,16.94,L,8.0,0.0
7660,11,1,39297021,1300860839,1311163196,36945574,4033/171125,1,105.0,L,4.0,0.0
7660,12,1,50173966,1312049510,1312049565,34717919,031225/1,1,1.0,L,0.44,0.0
7660,13,1,50173966,1312049510,1312049612,34717919,246/141025,1,160.38,L,4.0,0.0
7660,14,1,39297021,1300860839,1311164039,36945574,97611/130825,1,450.38,L,44.0,0.0
7660,15,1,39297021,1300860839,1311164046,36945574,97611/130825/2,1,1129.72,L,2.0,0.0
7660,16,1,39297021,1300860839,1311451226,36945574,213483/271125/1,1,15.64,L,100.0,0.0
7660,17,1,39297021,1300860839,1311451233,36945574,213483/271125/2,1,15.64,L,100.0,0.0
7660,18,1,39297021,1300860839,1311451241,36945574,213483/271125/3,1,2.12,L,50.0,0.0
7660,19,1,39297021,1300860839,1312156912,36945574,26765/171125/1,1,11.25,L,8.0,0.0
7660,20,1,39297021,1300860839,1312156919,36945574,26765/171125/2,1,0.5,L,10.0,0.0
7660,21,1,39297021,1300860839,1312551440,36945574,201025/6,1,0.0,L,5.0,0.0
7660,22,1,39297021,1300860839,1312551454,36945574,12345,1,0.0,L,37.0,0.0
7660,23,1,39297021,1300860839,1312551467,36945574,10527503/071125/2,1,0.09,L,4.0,0.0
7660,24,1,39297021,1300860839,1312761932,36945574,E250569/14,1,17.09,L,2.0,0.0
7660,25,1,39297021,1300860839,1312845174,36945574,29512/101225/1,1,165.3,L,1.0,0.0
7660,26,1,39297021,1300860839,1312845181,36945574,29512/101225/2,1,112.14,L,1.0,0.0
7660,27,1,39297021,1300860839,1312933207,36945574,661/181125/3,1,180.0,L,1.0,0.0
7660,28,1,39297021,1300860839,1312933960,36945574,25070100119,1,346.8,L,1.0,0.0
7660,29,1,39297021,1300860839,1312933966,36945574,213814/130825,1,270.3,L,1.0,0.0
7660,30,1,39297021,1300860839,1316041199,36945574,080825/49,1,2.955256,M,14.0,0.0
7660,31,1,39297021,1300860839,1316041199,36945574,1459019939/121125/13,2,2.955256,M,3.0,0.0
7660,32,1,39297021,1300860839,1320961643,36945574,281125/1,1,12006.22,L,1.0,0.0
7361,1,1,47412753,1312049510,1312049612,45925431,246/141025,1,82.0,M,2.0,0.0
7361,2,1,47412753,1312049510,0,40778195,160226/3,1,169.688025745717,L,2.0,0.0
7361,3,1,47412753,1312049510,1312049612,40778195,246/141025,1,82.0,M,2.0,0.0
7361,4,1,43563959,1312034596,1312034703,38799182,28082025/6,1,33.642882,M,0.9,0.0
7361,5,1,43563959,1312034596,0,43349306,160226/4,1,29.609891055927,L,2.0,0.0
7361,6,1,43563959,1312034596,1312034703,43349306,28082025/6,1,33.642882,M,0.9,0.0
7361,7,1,46362116,1312062665,1312062768,35411133,10143532/110925/33.7,1,11.544970677410612,M,0.14,0.0
7361,8,1,39753949,1300860756,1307631835,35842324,PBC875686,1,393.72,L,1.0,0.0
7361,9,1,39753949,1300860756,1307631835,35842324,PBC875687,2,393.72,L,1.0,0.0
7361,10,1,39753949,1300860756,1307631835,35842324,PBC875688,3,328.1,L,2.0,0.0
7361,11,1,39753949,1300860756,1307635956,35842324,1459017916/161025,1,3.5699999999999994,L,7.0,0.0
7361,12,1,39753949,1300860756,1307635973,35842324,1459015834/170925/5,1,9.29,L,8.0,0.0
7361,13,1,39753949,1300860756,1307635973,35842324,pt154,2,9.29,L,1.0,0.0
7361,14,1,39753949,1300860756,1307635985,35842324,080825/49,1,0.0,L,6.0,0.0
7361,15,1,39753949,1300860756,1307739682,35842324,061125/1,1,8.0,L,20.0,0.0
7361,16,1,39753949,1300860756,1311156208,35842324,3907/2208.2025,1,18.7,L,80.0,0.0
7361,17,1,39753949,1300860756,1311234214,35842324,120111486/191125,1,0.4,L,180.0,0.0
7361,18,1,39753949,1300860756,1312143813,35842324,261188/090925/2,1,1.84,L,60.0,0.0
7361,19,1,39753949,1300860756,1312143813,35842324,261922/240925,2,1.84,L,52.0,0.0
7361,20,1,39753949,1300860756,1312143826,35842324,263403/211025/2,1,4.16,L,4.0,0.0
7361,21,1,39753949,1300860756,1312143846,35842324,12345,1,0.0,L,4.0,0.0
7361,22,1,39753949,1300860756,1312143860,35842324,261121/050925,1,6.3648,L,50.0,0.0
7361,23,1,39753949,1300860756,1312143860,35842324,261508/150925,2,6.36,L,100.0,0.0
7361,24,1,39753949,1300860756,1312143860,35842324,261509/150925,3,6.36,L,50.0,0.0
7361,25,1,39753949,1300860756,1312143876,35842324,1658148,1,0.0,L,11.0,0.0
7361,26,1,39753949,1300860756,1312143906,35842324,16814612,1,0.0,L,2.0,0.0
7361,27,1,39753949,1300860756,1312143906,35842324,261780/190925,2,78.336,L,3.0,0.0
7361,28,1,39753949,1300860756,1312143906,35842324,261920/240925,3,78.34,L,5.0,0.0
7361,29,1,46362116,1312062665,0,33970879,160226/5,1,16.7773991,L,2.0,0.0
7361,30,1,46362116,1312062665,1312062768,33970879,10143532/110925/33.7,1,11.544970677410612,M,0.14,0.0
7361,31,1,47318391,1312063269,1312063346,44831034,160226/2,1,26.31,M,4.0,0.0
7361,32,1,47318391,1312063269,1312063363,44831034,160226/5,1,9.21,M,2.0,0.0
7361,33,1,47318391,1312063269,1312063383,44831034,160226/3,1,86.76,M,2.0,0.0
7361,34,1,47318391,1312063269,0,34128221,160226/6,1,148.59,M,2.0,0.0
7361,35,1,47318391,1312063269,1312063346,34128221,160226/2,1,26.31,M,4.0,0.0
7361,36,1,47318391,1312063269,1312063363,34128221,160226/5,1,9.21,M,2.0,0.0
7361,37,1,47318391,1312063269,1312063383,34128221,160226/3,1,86.76,M,2.0,0.0
8226,1,1,39314364,1308356621,1308356653,48143827,271025/ppb,1,6.39613781916828,L,10.0,0.0
8226,2,1,39314364,1308356621,1308356672,48143827,0005245092,1,17.02,L,10.0,0.0
8226,3,1,39314364,1308356621,1308356693,48143827,0005484599,1,69.26,M,10.0,0.0
8226,4,1,39314364,1308356621,1308356769,48143827,5166101/081025/1,1,28.36,L,1.0,0.0
8226,5,1,39314364,1308356621,1308356802,48143827,5166101/081025/2,1,36.18,L,2.3,0.0
8226,6,1,40113226,1310539391,0,38754772,201125/3,1,46.80800000000001,L,3.0,0.0
8226,7,1,40113226,1310539391,1310539433,38754772,181125/2,1,1.0,L,0.2,0.0
8226,8,1,40113226,1310539391,1310634354,38754772,5166101/081025/2,1,36.18,L,2.3,0.0
8226,9,1,40113226,1310539391,1310634540,38754772,5166101/081025/1,1,28.36,L,1.0,0.0
8226,31,1,50173966,1312049510,0,39701296,041225/3,1,169.69,L,4.0,0.0
8226,32,1,50173966,1312049510,1312049543,39701296,29416/271125/1,1,4.6,L,8.0,0.0
8226,33,1,50173966,1312049510,1312049565,39701296,031225/1,1,1.0,L,0.44,0.0
8226,34,1,50173966,1312049510,1312049612,39701296,246/141025,1,160.38,L,4.0,0.0
8226,35,1,48413636,1312062665,1312062731,41286454,10143532/110925/k1`,1,5.86,L,4.0,0.0
8226,36,1,48413636,1312062665,1312062768,41286454,28082025/3,1,22.58,L,0.28,0.0
8226,37,1,48413636,1312062665,1312062784,41286454,10143532/110925/25,1,11.1132,L,4.0,0.0
8226,38,1,48413636,1312062665,0,34500568,041225/4,1,18.553800000000003,L,4.0,0.0
8226,39,1,48413636,1312062665,1312062731,34500568,10143532/110925/k1`,1,5.86,L,4.0,0.0
8226,40,1,48413636,1312062665,1312062768,34500568,28082025/3,1,22.58,L,0.28,0.0
8226,41,1,48413636,1312062665,1312062784,34500568,10143532/110925/25,1,11.1132,L,4.0,0.0
8226,42,1,47273863,1312063269,1312063346,35731331,041225/2,1,52.00316,L,8.0,0.0
8508,1,1,47273863,1312063269,1312063363,35731331,041225/4,1,18.5538,L,4.0,0.0
8508,2,1,47273863,1312063269,1312063383,35731331,041225/3,1,169.69,L,4.0,0.0
8508,3,1,47273863,1312063269,0,34428257,041225/5,1,292.25012,L,4.0,0.0
8508,4,1,47273863,1312063269,1312063346,34428257,041225/2,1,52.00316,L,8.0,0.0
8508,5,1,47273863,1312063269,1312063363,34428257,041225/4,1,18.5538,L,4.0,0.0
8508,6,1,47273863,1312063269,1312063383,34428257,041225/3,1,169.69,L,4.0,0.0
8508,54,1,39297021,1300860839,1300860841,46494003,28082025/10,1,2.26368,L,7.0,0.0
8508,55,1,39297021,1300860839,1300860842,46494003,28082025/11,1,0.0,L,0.07,0.0
8508,56,1,39297021,1300860839,1300860843,46494003,28082025/10,1,3.15594,L,6.0,0.0
8508,57,1,39297021,1300860839,1300860844,46494003,28082025/12,1,3.81654,L,36.0,0.0
8508,58,1,39297021,1300860839,1300860845,46494003,28082025/13,1,4.84848,L,56.5,0.0
8508,59,1,39297021,1300860839,1300860846,46494003,28082025/14,1,5.22249,L,1.5,0.0
8508,60,1,39297021,1300860839,1300860847,46494003,132017/28082025,1,11.5,L,2.6,0.0
8508,61,1,39297021,1300860839,1300860861,46494003,28082025/2,1,11.19,L,1.75,0.0
8508,62,1,39297021,1300860839,1300860862,46494003,10143532/110925/33.7,1,22.58,L,10.0,0.0
8508,63,1,39297021,1300860839,1300860862,46494003,28082025/3,2,22.58,L,11.0,0.0
8508,64,1,39297021,1300860839,1300860873,46494003,10143532/110925/k2`,1,11.196,L,8.0,0.0
8508,65,1,39297021,1300860839,1300860876,46494003,10143532/110925/t2`,1,21.65,L,2.0,0.0
8508,66,1,39297021,1300860839,1300860882,46494003,10142820/19082025,1,31.04,L,1.0,0.0
